mag,phs,freq
25.8389233120722,-90.8756913663685,0.00628318530717959
4.92859679386874,-99.5822463865419,0.0691150383789754
-0.900468152580386,-108.047341695208,0.131946891450771
-4.60783797338277,-116.093817736438,0.194778744522567
-7.44883277473081,-123.607159762119,0.257610597594363
-9.82016291962309,-130.536532323447,0.320442450666159
-11.8915138579545,-136.881973913814,0.383274303737955
-13.7484693449459,-142.676930996037,0.446106156809751
-15.4397480345347,-147.972599110877,0.508938009881546
-16.9960795783869,-152.826627089639,0.571769862953342
-18.438626878071,-157.296152376593,0.634601716025138
-19.7830374515195,-161.434111832626,0.697433569096934
-21.0415182857877,-165.287678472027,0.76026542216873
-22.2239657475523,-168.897930621395,0.823097275240526
-23.3386218523349,-172.300160185514,0.885929128312322
-24.3924817090882,-175.524463308288,0.948760981384117
-25.3915634424831,-178.596415339115,1.01159283445591
-26.3410977672732,-181.537728974557,1.07442468752771
-27.245667780925,-184.366849981858,1.1372565405995
-28.1093160613373,-187.099474947463,1.2000883936713
-28.9356291043637,-189.748990697432,1.2629202467431
-29.7278053111267,-192.326841987258,1.32575209981489
-30.4887105749985,-194.84283661299,1.38858395288669
-31.2209242423181,-197.30539743339,1.45141580595848
-31.9267774308117,-199.721770106594,1.51424765903028
-32.6083851765229,-202.098194264889,1.57707951210208
-33.2676735314757,-204.440044695202,1.63991136517387
-33.906402487902,-206.751948008908,1.70274321824567
-34.5261854248025,-209.03787933124,1.76557507131746
-35.1285056374681,-211.301242731565,1.82840692438926
-35.7147304070478,-213.544938443279,1.89123877746106
-36.2861229866802,-215.771419369843,1.95407063053285
-36.8438528172785,-217.982738922689,2.01690248360465
-37.3890042356846,-220.180591869485,2.07973433667644
-37.9225838976136,-222.366349571599,2.14256618974824
-38.4455271053849,-224.541090744057,2.20539804282003
-38.9587032041548,-226.705628668547,2.26822989589183
-39.4629201889119,-228.860535621294,2.33106174896363
-39.9589286467831,-231.006165135562,2.39389360203542
-40.4474251443831,-233.142672597772,2.45672545510722
-40.9290551573179,-235.270034572385,2.51955730817901
-41.4044156279659,-237.388067160781,2.58238916125081
-41.874057227865,-239.496443621073,2.64522101432261
-42.3384863920783,-241.594711407566,2.7080528673944
-42.7981671845407,-243.682308729493,2.7708847204662
-43.253523045418,-245.758580678015,2.83371657353799
-43.7049384638397,-247.822794928029,2.89654842660979
-44.1527606119331,-249.87415698674,2.95938027968159
-44.5973009689098,-251.911824934238,3.02221213275338
-45.0388369570635,-253.934923582061,3.08504398582518
-45.4776136050137,-255.942557963814,3.14787583889697
-45.9138452474578,-257.933826066763,3.21070769196877
-46.3477172651669,-259.907830714433,3.27353954504056
-46.7793878640743,-261.863690516752,3.33637139811236
-47.2089898881273,-263.800549815433,3.39920325118416
-47.6366326571597,-265.717587566985,3.46203510425595
-48.0624038184244,-267.614025122989,3.52486695732775
-48.4863711985919,-269.489132886074,3.58769881039954
-48.908584641955,-271.342235839278,3.65053066347134
-49.3290778202177,-273.172717965389,3.71336251654314
-49.7478699995123,-274.98002559056,3.77619436961493
-50.1649677511009,-276.763669702395,3.83902622268673
-50.5803665934549,-278.523227306311,3.90185807575852
-50.9940525549841,-280.258341894997,3.96468992883032
-51.4060036484793,-281.96872311409,4.02752178190211
-51.8161912502567,-283.654145712706,4.09035363497391
-52.2245813789491,-285.314447870386,4.15318548804571
-52.6311358708045,-286.949528992493,4.2160173411175
-53.0358134501667,-288.559347064458,4.2788491941893
-53.4385706954712,-290.143915651801,4.34168104726109
-53.8393629025652,-291.703300627928,4.40451290033289
-54.2381448484269,-293.237616705668,4.46734475340469
-54.6348714594122,-294.747023841668,4.53017660647648
-55.0294983889896,-296.231723575477,4.59300845954828
-55.4219825105549,-297.691955357622,4.65584031262007
-55.8122823313531,-299.12799291349,4.71867216569187
-56.2003583337919,-300.540140682567,4.78150401876367
-56.5861732505454,-301.92873036566,4.84433587183546
-56.9696922798181,-303.294117606264,4.90716772490726
-57.3508832470095,-304.636678826389,4.96999957797905
-57.7297167187993,-305.956808231784,5.03283143105085
-58.106166075386,-307.254914996839,5.09566328412264
-58.4802075462754,-308.531420635324,5.15849513719444
-58.8518202146431,-309.786756559608,5.22132699026624
-59.2209859949083,-311.021361828039,5.28415884333803
-59.5876895877549,-312.235681077715,5.34699069640983
-59.9519184164398,-313.430162637906,5.40982254948162
-60.3136625478413,-314.605256817798,5.47265440255342
-60.6729146013263,-315.761414361071,5.53548625562522
-61.0296696481597,-316.899085058952,5.59831810869701
-61.383925103848,-318.018716512776,5.66114996176881
-61.7356806155019,-319.120753036783,5.7239818148406
-62.0849379460156,-320.205634691676,5.7868136679124
-62.4317008566046,-321.273796439536,5.8496455209842
-62.7759749890095,-322.325667410778,5.91247737405599
-63.1177677484614,-323.36167027411,5.97530922712779
-63.4570881883191,-324.382220700784,6.03814108019958
-63.7939468971213,-325.387726914785,6.10097293327138
-64.1283558886513,-326.378589321063,6.16380478634317
-64.4603284954828,-327.355200204339,6.22663663941497
-64.7898792663675,-328.317943491493,6.28946849248677
-65.1170238677256,-329.267194571011,6.35230034555856
-65.4417789894218,-330.20332016343,6.41513219863036
-65.7641622549373,-331.126678237197,6.47796405170215
-66.0841921359908,-332.037617964754,6.54079590477395
-66.401887871613,-332.936479714159,6.60362775784574
-66.7172693916364,-333.823595071884,6.66645961091754
-67.0303572445311,-334.699286892857,6.72929146398934
-67.3411725294898,-335.56386937418,6.79212331706113
-67.6497368326447,-336.417648149249,6.85495517013293
-67.9560721672809,-337.260920399374,6.91778702320472
-68.2602009179021,-338.09397498023,6.98061887627652
-68.5621457879919,-338.91709256079,7.04345072934832
-68.8619297513123,-339.730545772592,7.10628258242011
-69.1595760065736,-340.534599367462,7.16911443549191
-69.4551079353133,-341.329510381983,7.2319462885637
-69.7485490628178,-342.115528307219,7.2947781416355
-70.0399230219267,-342.892895262358,7.35760999470729
-70.3292535195594,-343.661846171106,7.42044184777909
-70.6165643058094,-344.422608939791,7.48327370085089
-70.9018791454561,-345.175404636281,7.54610555392268
-71.1852217917493,-345.920447668918,7.60893740699448
-71.4666159623257,-346.657945964797,7.67176926006627
-71.7460853171248,-347.38810114678,7.73460111313807
-72.0236534381761,-348.111108708758,7.79743296620987
-72.2993438111356,-348.827158188701,7.86026481928166
-72.5731798084557,-349.536433339162,7.92309667235346
-72.8451846740794,-350.239112294901,7.98592852542525
-73.1153815095541,-350.935367737385,8.04876037849705
-73.3837932614678,-351.625367055962,8.11159223156885
-73.6504427101141,-352.30927250554,8.17442408464064
-73.9153524592994,-352.987241360636,8.23725593771244
-74.17854492721,-353.659426065705,8.30008779078423
-74.4400423382622,-354.325974381687,8.36291964385603
-74.6998667158631,-354.987029528709,8.42575149692783
-74.9580398760142,-355.642730324946,8.48858334999962
-75.2145834216943,-356.293211321619,8.55141520307142
-75.4695187379625,-356.938602934145,8.61424705614321
-75.7228669877259,-357.57903156948,8.67707890921501
-75.9746491081195,-358.214619749681,8.7399107622868
-76.2248858074512,-358.84548623174,8.8027426153586
-76.4735975626653,-359.471746123749,8.8655744684304
-76.720804617284,-360.093510997464,8.92840632150219
-76.9665269797861,-360.710888997333,8.99123817457399
-77.2107844223884,-361.323984946067,9.05407002764578
-77.4535964801943,-361.932900446837,9.11690188071758
-77.6949824506789,-362.537733982175,9.17973373378937
-77.9349613934814,-363.138581009664,9.24256558686117
-78.1735521304774,-363.735534054504,9.30539743993297
-78.410773246106,-364.328682799046,9.36822929300476
-78.6466430879285,-364.918114169376,9.43106114607656
-78.8811797673968,-365.503912419037,9.49389299914835
-79.1144011608123,-366.086159209978,9.55672485222015
-79.346324910455,-366.664933690823,9.61955670529195
-79.5769684258674,-367.240312572534,9.68238855836374
-79.8063488852775,-367.812370201557,9.74522041143554
-80.0344832371438,-368.381178630546,9.80805226450733
-80.2613882018121,-368.946807686723,9.87088411757913
-80.4870802732689,-369.509325037982,9.93371597065093
-80.7115757209823,-370.068796256791,9.99654782372272
-80.934890591817,-370.625284881984,10.0593796767945
-81.1570407120171,-371.178852478512,10.1222115298663
-81.3780416892444,-371.729558695224,10.1850433829381
-81.5979089146665,-372.277461320755,10.2478752360099
-81.8166575650861,-372.822616337582,10.3107070890817
-82.0343026051045,-373.365077974319,10.3735389421535
-82.2508587893134,-373.904898756318,10.4363707952253
-82.4663406645092,-374.442129554628,10.4992026482971
-82.6807625719244,-374.976819633386,10.5620345013689
-82.894138649471,-375.509016695691,10.6248663544407
-83.1064828339927,-376.038766928017,10.6876982075125
-83.3178088635204,-376.566115043224,10.7505300605843
-83.5281302795288,-377.091104322213,10.8133619136561
-83.7374604291896,-377.613776654286,10.8761937667279
-83.9458124676199,-378.13417257625,10.9390256197997
-84.153199360122,-378.652331310314,11.0018574728715
-84.3596338844119,-379.168290800836,11.0646893259433
-84.5651286328366,-379.682087749946,11.127521179015
-84.7696960145761,-380.193757652099,11.1903530320868
-84.9733482578286,-380.703334827598,11.2531848851586
-85.1760974119798,-381.21085245512,11.3160167382304
-85.3779553497519,-381.716342603289,11.3788485913022
-85.5789337693334,-382.219836261329,11.441680444374
-85.7790441964881,-382.721363368831,11.5045122974458
-85.9782979866426,-383.220952844671,11.5673441505176
-86.1767063269509,-383.718632615104,11.6301760035894
-86.3742802383371,-384.214429641076,11.6930078566612
-86.571030577515,-384.708369944771,11.755839709733
-86.7669680389827,-385.200478635426,11.8186715628048
-86.9621031569958,-385.690779934453,11.8815034158766
-87.156446307515,-386.179297199865,11.9443352689484
-87.3500077101306,-386.66605295007,12.0071671220202
-87.5427974299624,-387.151068887017,12.069998975092
-87.7348253795373,-387.634365918748,12.1328308281638
-87.9261013206412,-388.115964181362,12.1956626812356
-88.1166348661489,-388.595883060416,12.2584945343074
-88.3064354818301,-389.074141211781,12.3213263873792
-88.4955124881326,-389.55075658198,12.384158240451
-88.6838750619425,-390.025746428013,12.4469900935228
-88.8715322383223,-390.499127336696,12.5098219465946
-89.0584929122268,-390.970915243538,12.5726537996664
-89.2447658401975,-391.441125451149,12.6354856527381
-89.4303596420357,-391.909772647217,12.6983175058099
-89.6152828024547,-392.376870922059,12.7611493588817
-89.7995436727116,-392.842433785761,12.8239812119535
-89.98315047222,-393.306474184918,12.8868130650253
-90.1661112901415,-393.769004518992,12.9496449180971
-90.3484340869601,-394.2300366563,13.0124767711689
-90.5301266960367,-394.689581949631,13.0753086242407
-90.7111968251466,-395.147651251529,13.1381404773125
-90.8916520579982,-395.604254929218,13.2009723303843
-91.0714998557362,-396.059402879219,13.2638041834561
-91.2507475584266,-396.513104541627,13.3266360365279
-91.4294023865266,-396.965368914095,13.3894678895997
-91.6074714423382,-397.416204565503,13.4522997426715
-91.7849617114472,-397.865619649342,13.5151315957433
-91.9618800641467,-398.313621916811,13.5779634488151
-92.1382332568468,-398.760218729635,13.6407953018869
-92.31402793347,-399.205417072612,13.7036271549587
-92.4892706268336,-399.649223565899,13.7664590080305
-92.6639677600184,-400.091644477036,13.8292908611023
-92.8381256477255,-400.532685732726,13.8921227141741
-93.0117504976198,-400.972352930364,13.9549545672459
-93.1848484116628,-401.410651349324,14.0177864203177
-93.3574253874327,-401.847585962025,14.0806182733895
-93.5294873194341,-402.28316144475,14.1434501264612
-93.7010400003967,-402.717382188254,14.206281979533
-93.872089122563,-403.150252308146,14.2691138326048
-94.0426402789663,-403.58177565506,14.3319456856766
-94.2126989646986,-404.011955824607,14.3947775387484
-94.382270578169,-404.440796167132,14.4576093918202
-94.5513604223519,-404.868299797251,14.520441244892
-94.7199737060274,-405.294469603209,14.5832730979638
-94.8881155450118,-405.719308256018,14.6461049510356
-95.0557909633795,-406.142818218425,14.7089368041074
-95.2230048946772,-406.565001753672,14.7717686571792
-95.3897621831287,-406.985860934078,14.834600510251
-95.5560675848325,-407.405397649436,14.8974323633228
-95.7219257689509,-407.823613615225,14.9602642163946
-95.8873413188918,-408.240510380651,15.0230960694664
-96.0523187334824,-408.656089336501,15.0859279225382
-96.2168624281359,-409.070351722832,15.14875977561
-96.3809767360101,-409.483298636485,15.2115916286818
-96.5446659091593,-409.894931038432,15.2744234817536
-96.7079341196788,-410.305249760951,15.3372553348254
-96.8707854608424,-410.714255514643,15.4000871878972
-97.0332239482323,-411.121948895285,15.462919040969
-97.1952535208626,-411.528330390513,15.5257508940408
-97.3568780422957,-411.933400386361,15.5885827471126
-97.5181013017515,-412.337159173633,15.6514146001843
-97.6789270152098,-412.739606954121,15.7142464532561
-97.839358826506,-413.140743846676,15.7770783063279
-97.9994003084195,-413.540569893116,15.8399101593997
-98.1590549637557,-413.939085064,15.9027420124715
-98.3183262264208,-414.336289264237,15.9655738655433
-98.4772174624894,-414.732182338564,16.0284057186151
-98.6357319712658,-415.126764076868,16.0912375716869
-98.7938729863377,-415.520034219372,16.1540694247587
-98.9516436766232,-415.911992461678,16.2169012778305
-99.1090471474105,-416.302638459666,16.2797331309023
-99.2660864413905,-416.691971834265,16.3425649839741
-99.4227645396826,-417.079992176075,16.4053968370459
-99.5790843628526,-417.466699049868,16.4682286901177
-99.7350487719235,-417.852091998942,16.5310605431895
-99.8906605693795,-418.236170549354,16.5938923962613
-100.045922500161,-418.61893421402,16.6567242493331
-100.200837252655,-419.000382496683,16.7195561024049
-100.355407459672,-419.380514895761,16.7823879554767
-100.509635699425,-419.759330908067,16.8452198085485
-100.663524496489,-420.136830032402,16.9080516616203
-100.817076322761,-420.513011773032,16.9708835146921
-100.97029359841,-420.887875643044,17.0337153677639
-101.123178692817,-421.261421167582,17.0965472208357
-101.275733925508,-421.633647886965,17.1593790739074
-101.427961567082,-422.004555359694,17.2222109269792
-101.579863840122,-422.374143165343,17.285042780051
-101.731442920108,-422.742410907339,17.3478746331228
-101.882700936313,-423.109358215634,17.4107064861946
-102.033639972699,-423.474984749266,17.4735383392664
-102.184262068792,-423.839290198814,17.5363701923382
-102.334569220562,-424.20227428875,17.59920204541
-102.484563381284,-424.56393677969,17.6620338984818
-102.634246462394,-424.924277470536,17.7248657515536
-102.783620334339,-425.283296200529,17.7876976046254
-102.932686827408,-425.640992851198,17.8505294576972
-103.081447732566,-425.997367348212,17.913361310769
-103.229904802271,-426.352419663142,17.9761931638408
-103.378059751282,-426.706149815133,18.0390250169126
-103.525914257461,-427.058557872476,18.1018568699844
-103.673469962566,-427.4096439541,18.1646887230562
-103.820728473027,-427.759408230977,18.227520576128
-103.967691360722,-428.107850927435,18.2903524291998
-104.114360163737,-428.454972322394,18.3531842822716
-104.260736387119,-428.80077275052,18.4160161353434
-104.406821503618,-429.145252603298,18.4788479884152
-104.55261695442,-429.488412330024,18.541679841487
-104.698124149872,-429.830252438731,18.6045116945588
-104.843344470193,-430.170773497028,18.6673435476306
-104.988279266175,-430.509976132876,18.7301754007023
-105.132929859882,-430.847861035287,18.7930072537741
-105.27729754533,-431.184428954965,18.8558391068459
-105.421383589161,-431.519680704861,18.9186709599177
-105.565189231307,-431.853617160684,18.9815028129895
-105.708715685641,-432.186239261333,19.0443346660613
-105.851964140626,-432.517548009274,19.1071665191331
-105.994935759944,-432.847544470854,19.1699983722049
-106.137631683122,-433.17622977656,19.2328302252767
-106.280053026145,-433.503605121221,19.2956620783485
-106.422200882059,-433.829671764147,19.3584939314203
-106.564076321568,-434.154431029229,19.4213257844921
-106.705680393614,-434.477884304974,19.4841576375639
-106.847014125954,-434.800033044498,19.5469894906357
-106.988078525722,-435.120878765469,19.6098213437075
-107.128874579987,-435.440423049999,19.6726531967793
-107.269403256294,-435.758667544499,19.7354850498511
-107.409665503202,-436.07561395948,19.7983169029229
-107.549662250806,-436.391264069324,19.8611487559947
-107.689394411254,-436.705619712005,19.9239806090665
-107.828862879258,-437.018682788775,19.9868124621383
-107.96806853258,-437.33045526381,20.0496443152101
-108.107012232529,-437.640939163825,20.1124761682819
-108.245694824433,-437.950136577651,20.1753080213537
-108.38411713811,-438.258049655775,20.2381398744254
-108.522279988325,-438.564680609858,20.3009717274972
-108.660184175242,-438.870031712215,20.363803580569
-108.79783048486,-439.174105295267,20.4266354336408
-108.935219689452,-439.476903750968,20.4894672867126
-109.072352547981,-439.778429530206,20.5522991397844
-109.209229806515,-440.078685142171,20.6151309928562
-109.345852198635,-440.377673153712,20.677962845928
-109.482220445829,-440.675396188663,20.7407946989998
-109.618335257876,-440.971856927146,20.8036265520716
-109.754197333232,-441.267058104863,20.8664584051434
-109.889807359395,-441.561002512357,20.9292902582152
-110.025166013268,-441.853692994267,20.992122111287
-110.160273961515,-442.145132448557,21.0549539643588
-110.295131860902,-442.435323825735,21.1177858174306
-110.42974035864,-442.724270128052,21.1806176705024
-110.564100092711,-443.011974408695,21.2434495235742
-110.69821169219,-443.298439770959,21.306281376646
-110.83207577756,-443.583669367413,21.3691132297178
-110.965692961016,-443.867666399054,21.4319450827896
-111.099063846767,-444.15043411445,21.4947769358614
-111.232189031323,-444.431975808874,21.5576087889332
-111.365069103781,-444.712294823434,21.620440642005
-111.497704646104,-444.991394544188,21.6832724950768
-111.630096233383,-445.269278401262,21.7461043481485
-111.762244434108,-445.545949867955,21.8089362012203
-111.894149810417,-445.821412459843,21.8717680542921
-112.025812918348,-446.095669733878,21.9345999073639
-112.157234308078,-446.368725287484,21.9974317604357
-112.288414524161,-446.640582757648,22.0602636135075
-112.419354105755,-446.911245820016,22.1230954665793
-112.550053586847,-447.180718187979,22.1859273196511
-112.680513496465,-447.449003611763,22.2487591727229
-112.810734358891,-447.716105877519,22.3115910257947
-112.940716693862,-447.982028806414,22.3744228788665
-113.070461016773,-448.246776253721,22.4372547319383
-113.199967838863,-448.510352107911,22.5000865850101
-113.329237667406,-448.772760289751,22.5629184380819
-113.45827100589,-449.034004751399,22.6257502911537
-113.587068354192,-449.294089475505,22.6885821442255
-113.715630208748,-449.553018474319,22.7514139972973
-113.843957062718,-449.810795788796,22.8142458503691
-113.972049406144,-450.067425487712,22.8770777034409
-114.099907726108,-450.32291166678,22.9399095565127
-114.227532506875,-450.577258447778,23.0027414095845
-114.354924230045,-450.830469977672,23.0655732626563
-114.482083374685,-451.082550427758,23.1284051157281
-114.609010417471,-451.3335039928,23.1912369687999
-114.735705832811,-451.58333489018,23.2540688218716
-114.862170092979,-451.832047359053,23.3169006749434
-114.988403668231,-452.07964565951,23.3797325280152
-115.114407026923,-452.326134071751,23.442564381087
-115.240180635625,-452.571516895258,23.5053962341588
-115.365724959231,-452.815798447989,23.5682280872306
-115.491040461062,-453.058983065565,23.6310599403024
-115.616127602968,-453.30107510048,23.6938917933742
-115.740986845425,-453.542078921309,23.756723646446
