mag,phs,freq
45.2294571611388,-89.8137700640329,0.00628318530717959
24.4409332242283,-87.9753739339487,0.0691150383789754
18.9261061152767,-86.2526779745729,0.131946891450771
15.6993551922099,-84.7347599661421,0.194778744522567
13.4702631805649,-83.485255627778,0.257610597594363
11.804740284451,-82.5392008642603,0.320442450666159
10.4985880199625,-81.9055667196582,0.383274303737955
9.43737770900025,-81.5731522113379,0.446106156809751
8.55003311865314,-81.5174171202853,0.508938009881546
7.78954301134075,-81.7066100763992,0.571769862953342
7.12356460442214,-82.1064545747522,0.634601716025138
6.52926715049832,-82.6833060260574,0.697433569096934
5.99024288082926,-83.4060225265675,0.76026542216873
5.49453812878235,-84.2468900161723,0.823097275240526
5.0333442850433,-85.1819183655359,0.885929128312322
4.60010240732027,-86.1907559166435,0.948760981384117
4.18987886041902,-87.2563970571269,1.01159283445591
3.79892401863723,-88.3647969488304,1.07442468752771
3.42435721937485,-89.504463075823,1.1372565405995
3.06394006728228,-90.6660629690475,1.2000883936713
2.71591222600203,-91.8420679453558,1.2629202467431
2.37887176654376,-93.0264407574135,1.32575209981489
2.05168749719178,-94.2143681487514,1.38858395288669
1.73343437929295,-95.4020356166477,1.45141580595848
1.42334569274793,-96.5864399608475,1.51424765903028
1.12077741209057,-97.7652346256769,1.57707951210208
0.825181525005434,-98.9366029127882,1.63991136517387
0.536085929396198,-100.099154536098,1.70274321824567
0.253079191786091,-101.251841522259,1.76557507131746
-0.0242010855867411,-102.393890022804,1.82840692438926
-0.296077206430449,-103.524745141224,1.89123877746106
-0.562838305464617,-104.644026362572,1.95407063053285
-0.824745754968853,-105.751491595059,2.01690248360465
-1.08203742200647,-106.847008192089,2.07973433667644
-1.33493105108029,-107.930529623874,2.14256618974824
-1.58362697753099,-109.002076716822,2.20539804282003
-1.82831032572955,-110.061722583452,2.26822989589183
-2.06915280814381,-111.109580532683,2.33106174896363
-2.30631421312625,-112.145794386224,2.39389360203542
-2.53994364820236,-113.170530736976,2.45672545510722
-2.77018058985979,-114.183972774524,2.51955730817901
-2.99715577897633,-115.186315374808,2.58238916125081
-3.22099199207423,-116.177761209297,2.64522101432261
-3.44180471180905,-117.158517675886,2.7080528673944
-3.65970271494633,-118.128794491686,2.7708847204662
-3.8747885921448,-119.08880181843,2.83371657353799
-4.0871592108486,-120.038748815974,2.89654842660979
-4.29690613026988,-120.978842539285,2.95938027968159
-4.50411597564879,-121.90928711051,3.02221213275338
-4.70887077758417,-122.830283110714,3.08504398582518
-4.91124828114151,-123.74202714651,3.14787583889697
-5.11132222859169,-124.644711555329,3.21070769196877
-5.30916261896264,-125.538524220046,3.27353954504056
-5.50483594705284,-126.423648469279,3.33637139811236
-5.69840542413154,-127.300263044302,3.39920325118416
-5.88993118220947,-128.168542117169,3.46203510425595
-6.07947046348907,-129.02865534769,3.52486695732775
-6.26707779637964,-129.880767969346,3.58769881039954
-6.45280515927994,-130.725040896215,3.65053066347134
-6.6367021331796,-131.561630844582,3.71336251654314
-6.81881604400572,-132.390690464246,3.77619436961493
-6.99919209553578,-133.212368475569,3.83902622268673
-7.17787349360952,-134.026809809189,3.90185807575852
-7.35490156229727,-134.834155746015,3.96468992883032
-7.5303158526176,-135.63454405568,4.02752178190211
-7.70415424434146,-136.428109132076,4.09035363497391
-7.87645304137166,-137.214982124975,4.15318548804571
-8.04724706114418,-137.995291067014,4.2160173411175
-8.21656971846013,-138.769160995561,4.2788491941893
-8.3844531041246,-139.536714069164,4.34168104726109
-8.55092805873854,-140.29806967843,4.40451290033289
-8.71602424196353,-141.053344551285,4.46734475340469
-8.87977019755554,-141.802652852666,4.53017660647648
-9.04219341444196,-142.546106278744,4.59300845954828
-9.2033203840964,-143.283814145854,4.65584031262007
-9.36317665444831,-144.015883474306,4.71867216569187
-9.52178688054747,-144.742419067308,4.78150401876367
-9.67917487218869,-145.463523585229,4.84433587183546
-9.83536363868815,-146.179297615452,4.90716772490726
-9.9903754309899,-146.889839738047,4.96999957797905
-10.1442317812692,-147.595246587532,5.03283143105085
-10.2969535401888,-148.295612910943,5.09566328412264
-10.4485609119531,-148.991031622463,5.15849513719444
-10.5990734872975,-149.681593854824,5.22132699026624
-10.7485102745396,-150.367389007717,5.28415884333803
-10.8968897288108,-151.048504793394,5.34699069640983
-11.0442297795822,-151.725027279688,5.40982254948162
-11.190547856587,-152.397040930603,5.47265440255342
-11.3358609142385,-153.064628644686,5.53548625562522
-11.4801854546357,-153.727871791313,5.59831810869701
-11.623537549241,-154.386850245058,5.66114996176881
-11.7659328593127,-155.04164241829,5.7239818148406
-11.9073866551661,-155.692325292121,5.7868136679124
-12.0479138343346,-156.338974445839,5.8496455209842
-12.1875289386974,-156.98166408493,5.91247737405599
-12.3262461706353,-157.620467067808,5.97530922712779
-12.4640794082741,-158.255454931334,6.03814108019958
-12.6010422198691,-158.886697915231,6.10097293327138
-12.7371478773827,-159.514264985466,6.16380478634317
-12.8724093693034,-160.138223856686,6.22663663941497
-13.0068394127504,-160.758641013764,6.28946849248677
-13.1404504649077,-161.375581732533,6.35230034555856
-13.2732547338255,-161.989110099764,6.41513219863036
-13.405264188628,-162.599289032435,6.47796405170215
-13.5364905691616,-163.206180296351,6.54079590477395
-13.6669453951164,-163.809844524152,6.60362775784574
-13.7966399746517,-164.410341232754,6.66645961091754
-13.925585412555,-165.007728840269,6.72929146398934
-14.0537926179609,-165.602064682416,6.79212331706113
-14.1812723116557,-166.193405028487,6.85495517013293
-14.3080350329917,-166.781805096868,6.91778702320472
-14.4340911464333,-167.367319070157,6.98061887627652
-14.559450847756,-167.950000109902,7.04345072934832
-14.6841241699187,-168.529900370976,7.10628258242011
-14.8081209886266,-169.107071015616,7.16911443549191
-14.9314510276031,-169.681562227133,7.2319462885637
-15.0541238635875,-170.253423223331,7.2947781416355
-15.176148931072,-170.822702269623,7.35760999470729
-15.2975355267942,-171.389446691885,7.42044184777909
-15.4182928139987,-171.953702889039,7.48327370085089
-15.5384298264783,-172.515516345398,7.54610555392268
-15.6579554724102,-173.074931642759,7.60893740699448
-15.7768785379951,-173.631992472287,7.67176926006627
-15.8952076909125,-174.186741646158,7.73460111313807
-16.0129514836,-174.739221109018,7.79743296620987
-16.1301183563672,-175.28947194922,7.86026481928166
-16.2467166403532,-175.837534409878,7.92309667235346
-16.3627545603346,-176.383447899737,7.98592852542525
-16.4782402373934,-176.927251003854,8.04876037849705
-16.5931816914504,-177.468981494118,8.11159223156885
-16.7075868436731,-178.008676339589,8.17442408464064
-16.8214635187627,-178.546371716689,8.23725593771244
-16.9348194471271,-179.082103019231,8.30008779078423
-17.0476622669456,-179.615904868292,8.36291964385603
-17.1599995261316,-180.147811121949,8.42575149692783
-17.2718386841959,-180.677854884867,8.48858334999962
-17.3831871140187,-181.206068517757,8.55141520307142
-17.4940521035327,-181.732483646691,8.61424705614321
-17.6044408573216,-182.257131172296,8.67707890921501
-17.7143604981394,-182.780041278828,8.7399107622868
-17.8238180683534,-183.301243443113,8.8027426153586
-17.9328205313147,-183.820766443384,8.8655744684304
-18.0413747726591,-184.338638367999,8.92840632150219
-18.1494876015433,-184.854886624051,8.99123817457399
-18.2571657518172,-185.369537945877,9.05407002764578
-18.3644158831376,-185.882618403457,9.11690188071758
-18.4712445820236,-186.394153410728,9.17973373378937
-18.5776583628588,-186.904167733788,9.24256558686117
-18.683663668841,-187.412685499024,9.30539743993297
-18.7892668728822,-187.919730201143,9.36822929300476
-18.894474278462,-188.425324711118,9.43106114607656
-18.9992921204355,-188.929491284062,9.49389299914835
-19.1037265657981,-189.432251567016,9.55672485222015
-19.2077837144094,-189.933626606665,9.61955670529195
-19.3114695996781,-190.433636856982,9.68238855836374
-19.4147901892087,-190.932302186807,9.74522041143554
-19.5177513854136,-191.429641887357,9.80805226450733
-19.62035902609,-191.925674679674,9.87088411757913
-19.7226188849654,-192.420418722016,9.93371597065093
-19.8245366722111,-192.913891617194,9.99654782372272
-19.926118034927,-193.406110419844,10.0593796767945
-20.0273685575976,-193.897091643667,10.1222115298663
-20.1282937625217,-194.386851268603,10.1850433829381
-20.228899110216,-194.875404747969,10.2478752360099
-20.3291899997955,-195.362767015557,10.3107070890817
-20.4291717693291,-195.848952492683,10.3735389421535
-20.5288496961755,-196.333975095208,10.4363707952253
-20.6282289972964,-196.817848240515,10.4992026482971
-20.7273148295508,-197.30058485446,10.5620345013689
-20.8261122899714,-197.782197378291,10.6248663544407
-20.9246264160219,-198.262697775536,10.6876982075125
-21.022862185839,-198.74209753887,10.7505300605843
-21.1208245184579,-199.220407696949,10.8133619136561
-21.2185182740242,-199.697638821236,10.8761937667279
-21.3159482539905,-200.173801032788,10.9390256197997
-21.4131192013018,-200.648904009045,11.0018574728715
-21.5100358005675,-201.122956990586,11.0646893259433
-21.6067026782234,-201.595968787877,11.127521179015
-21.7031244026824,-202.067947788008,11.1903530320868
-21.7993054844766,-202.538901961407,11.2531848851586
-21.8952503763899,-203.008838868557,11.3160167382304
-21.9909634735835,-203.477765666693,11.3788485913022
-22.0864491137134,-203.945689116496,11.441680444374
-22.181711577042,-204.412615588775,11.5045122974458
-22.2767550865438,-204.878551071146,11.5673441505176
-22.3715838080063,-205.343501174705,11.6301760035894
-22.4662018501262,-205.807471140693,11.6930078566612
-22.5606132646023,-206.270465847162,11.755839709733
-22.6548220462254,-206.73248981563,11.8186715628048
-22.7488321329655,-207.193547217736,11.8815034158766
-22.8426474060578,-207.653641881896,11.9443352689484
-22.9362716900874,-208.112777299948,12.0071671220202
-23.0297087530734,-208.570956633799,12.069998975092
-23.1229623065531,-209.028182722071,12.1328308281638
-23.2160360056669,-209.484458086735,12.1956626812356
-23.308933449245,-209.939784939757,12.2584945343074
-23.4016581798946,-210.394165189722,12.3213263873792
-23.4942136840903,-210.847600448471,12.384158240451
-23.5866033922674,-211.300092037723,12.4469900935228
-23.678830678918,-211.751640995695,12.5098219465946
-23.7708988626907,-212.20224808372,12.5726537996664
-23.8628112064956,-212.651913792852,12.6354856527381
-23.9545709176126,-213.100638350469,12.6983175058099
-24.0461811478056,-213.548421726867,12.7611493588817
-24.1376449934424,-213.99526364184,12.8239812119535
-24.22896549562,-214.441163571258,12.8868130650253
-24.3201456402964,-214.886120753627,12.9496449180971
-24.4111883584291,-215.330134196637,13.0124767711689
-24.5020965261209,-215.7732026837,13.0753086242407
-24.5928729647726,-216.215324780467,13.1381404773125
-24.6835204412436,-216.656498841331,13.2009723303843
-24.7740416680208,-217.096723015912,13.2638041834561
-24.864439303395,-217.535995255518,13.3266360365279
-24.954715951647,-217.974313319591,13.3894678895997
-25.0448741632412,-218.411674782123,13.4522997426715
-25.134916435029,-218.848077038049,13.5151315957433
-25.2248452104619,-219.283517309611,13.5779634488151
-25.3146628798124,-219.717992652699,13.6407953018869
-25.4043717804066,-220.151499963154,13.7036271549587
-25.493974196865,-220.584035983042,13.7664590080305
-25.5834723613538,-221.015597306893,13.8292908611023
-25.6728684538467,-221.4461803879,13.8921227141741
-25.762164602396,-221.875781544083,13.9549545672459
-25.8513628834147,-222.304396964414,14.0177864203177
-25.9404653219686,-222.732022714889,14.0806182733895
-26.0294738920789,-223.158654744569,14.1434501264612
-26.1183905170354,-223.584288891563,14.206281979533
-26.2072170697198,-224.008920888967,14.2691138326048
-26.2959553729401,-224.43254637075,14.3319456856766
-26.3846071997745,-224.855160877589,14.3947775387484
-26.4731742739274,-225.276759862646,14.4576093918202
-26.5616582700937,-225.697338697288,14.520441244892
-26.6500608143356,-226.11689267675,14.5832730979638
-26.7383834844679,-226.535417025738,14.6461049510356
-26.826627810455,-226.952906903957,14.7089368041074
-26.914795274817,-227.369357411594,14.7717686571792
-27.002887313046,-227.784763594712,14.834600510251
-27.0909053140329,-228.199120450593,14.8974323633228
-27.1788506205031,-228.612422932996,14.9602642163946
-27.2667245294625,-229.024665957355,15.0230960694664
-27.3545282926522,-229.435844405891,15.0859279225382
-27.442263117013,-229.845953132654,15.14875977561
-27.5299301651589,-230.254986968486,15.2115916286818
-27.6175305558588,-230.662940725905,15.2744234817536
-27.7050653645278,-231.069809203907,15.3372553348254
-27.7925356237263,-231.475587192685,15.4000871878972
-27.8799423236669,-231.880269478265,15.462919040969
-27.9672864127303,-232.283850847055,15.5257508940408
-28.0545687979878,-232.686326090311,15.5885827471126
-28.1417903457315,-233.08769000851,15.6514146001843
-28.2289518820118,-233.487937415637,15.7142464532561
-28.3160541931819,-233.887063143382,15.7770783063279
-28.4030980264482,-234.285062045243,15.8399101593997
-28.4900840904272,-234.681929000542,15.9027420124715
-28.5770130557088,-235.077658918338,15.9655738655433
-28.6638855554248,-235.472246741258,16.0284057186151
-28.7507021858225,-235.865687449227,16.0912375716869
-28.8374635068439,-236.257976063099,16.1540694247587
-28.9241700427092,-236.649107648199,16.2169012778305
-29.0108222825047,-237.039077317769,16.2797331309023
-29.0974206807749,-237.427880236306,16.3425649839741
-29.1839656581179,-237.815511622818,16.4053968370459
-29.2704576017848,-238.201966753968,16.4682286901177
-29.3568968662816,-238.587240967134,16.5310605431895
-29.443283773974,-238.971329663358,16.5938923962613
-29.5296186156944,-239.354228310207,16.6567242493331
-29.6159016513515,-239.735932444531,16.7195561024049
-29.7021331105407,-240.116437675123,16.7823879554767
-29.7883131931568,-240.495739685285,16.8452198085485
-29.8744420700068,-240.873834235292,16.9080516616203
-29.9605198834244,-241.250717164761,16.9708835146921
-30.0465467478838,-241.626384394928,17.0337153677639
-30.1325227506146,-242.000831930815,17.0965472208357
-30.2184479522159,-242.37405586332,17.1593790739074
-30.3043223872693,-242.746052371195,17.2222109269792
-30.3901460649522,-243.116817722939,17.285042780051
-30.475918969649,-243.486348278595,17.3478746331228
-30.5616410615608,-243.854640491456,17.4107064861946
-30.6473122773139,-244.221690909669,17.4735383392664
-30.7329325305653,-244.587496177765,17.5363701923382
-30.8185017126069,-244.952053038081,17.59920204541
-30.9040196929657,-245.315358332105,17.6620338984818
-30.9894863200021,-245.677409001727,17.7248657515536
-31.0749014215048,-246.038202090404,17.7876976046254
-31.1602648052813,-246.397734744239,17.8505294576972
-31.245576259746,-246.756004212977,17.913361310769
-31.3308355545034,-247.113007850912,17.9761931638408
-31.416042440927,-247.468743117719,18.0390250169126
-31.5011966527343,-247.823207579203,18.1018568699844
-31.5862979065567,-248.176398907962,18.1646887230562
-31.6713459025042,-248.528314883979,18.227520576128
-31.7563403247258,-248.878953395138,18.2903524291998
-31.8412808419633,-249.228312437658,18.3531842822716
-31.9261671081008,-249.576390116459,18.4160161353434
-32.0109987627078,-249.923184645451,18.4788479884152
-32.095775431576,-250.268694347761,18.541679841487
-32.1804967272511,-250.612917655877,18.6045116945588
-32.2651622495572,-250.95585311174,18.6673435476306
-32.3497715861153,-251.297499366755,18.7301754007023
-32.4343243128555,-251.637855181749,18.7930072537741
-32.5188199945218,-251.976919426862,18.8558391068459
-32.6032581851704,-252.314691081375,18.9186709599177
-32.6876384286614,-252.651169233482,18.9815028129895
-32.7719602591427,-252.98635308,19.0443346660613
-32.856223201527,-253.320241926028,19.1071665191331
-32.9404267719617,-253.652835184549,19.1699983722049
-33.0245704782913,-253.984132375974,19.2328302252767
-33.1086538205119,-254.314133127647,19.2956620783485
-33.1926762912189,-254.642837173286,19.3584939314203
-33.2766373760464,-254.970244352387,19.4213257844921
-33.3605365540991,-255.296354609578,19.4841576375639
-33.4443732983768,-255.621167993925,19.5469894906357
-33.5281470761906,-255.944684658203,19.6098213437075
-33.6118573495715,-256.266904858116,19.6726531967793
-33.695503575671,-256.587828951485,19.7354850498511
-33.7790852071544,-256.907457397392,19.7983169029229
-33.8626016925848,-257.225790755295,19.8611487559947
-33.9460524768009,-257.542829684099,19.9239806090665
-34.0294370012855,-257.858574941197,19.9868124621383
-34.1127547045266,-258.173027381485,20.0496443152101
-34.1960050223707,-258.486187956335,20.1124761682819
-34.2791873883676,-258.798057712551,20.1753080213537
-34.3623012341081,-259.108637791286,20.2381398744254
-34.4453459895529,-259.417929426944,20.3009717274972
-34.5283210833542,-259.725933946051,20.363803580569
-34.6112259431696,-260.032652766101,20.4266354336408
-34.6940599959675,-260.338087394388,20.4894672867126
-34.7768226683251,-260.642239426809,20.5522991397844
-34.8595133867193,-260.945110546654,20.6151309928562
-34.9421315778088,-261.246702523374,20.677962845928
-35.024676668709,-261.547017211339,20.7407946989998
-35.1071480872601,-261.846056548568,20.8036265520716
-35.1895452622864,-262.143822555462,20.8664584051434
-35.271867623849,-262.440317333511,20.9292902582152
-35.3541146034913,-262.735543063991,20.992122111287
-35.4362856344763,-263.029502006661,21.0549539643588
-35.5183801520175,-263.322196498434,21.1177858174306
-35.6003975935022,-263.613628952056,21.1806176705024
-35.6823373987084,-263.903801854766,21.2434495235742
-35.7641990100134,-264.192717766953,21.306281376646
-35.8459818725969,-264.480379320817,21.3691132297178
-35.9276854346368,-264.766789219005,21.4319450827896
-36.0093091474977,-265.05195023327,21.4947769358614
-36.0908524659137,-265.335865203104,21.5576087889332
-36.1723148481639,-265.618537034385,21.620440642005
-36.2536957562422,-265.899968698019,21.6832724950768
-36.3349946560198,-266.180163228575,21.7461043481485
-36.4162110174026,-266.459123722936,21.8089362012203
-36.4973443144815,-266.73685333894,21.8717680542921
-36.578394025677,-267.013355294024,21.9345999073639
-36.6593596338782,-267.28863286388,21.9974317604357
-36.7402406265753,-267.562689381106,22.0602636135075
-36.8210364959867,-267.835528233868,22.1230954665793
-36.901746739181,-268.107152864561,22.1859273196511
-36.9823708581921,-268.377566768483,22.2487591727229
-37.0629083601306,-268.646773492512,22.3115910257947
-37.1433587572884,-268.914776633791,22.3744228788665
-37.223721567239,-269.181579838416,22.4372547319383
-37.3039963129322,-269.447186800144,22.5000865850101
-37.3841825227841,-269.711601259096,22.5629184380819
-37.4642797307622,-269.97482700048,22.6257502911537
-37.5442874764654,-270.236867853317,22.6885821442255
-37.6242053051999,-270.49772768918,22.7514139972973
-37.7040327680495,-270.757410420945,22.8142458503691
-37.7837694219427,-271.015920001547,22.8770777034409
-37.8634148297146,-271.273260422757,22.9399095565127
-37.9429685601645,-271.52943571396,23.0027414095845
-38.0224301881098,-271.784449940953,23.0655732626563
-38.1017992944357,-272.038307204753,23.1284051157281
-38.1810754661406,-272.291011640414,23.1912369687999
-38.2602582963779,-272.542567415861,23.2540688218716
-38.3393473844941,-272.79297873074,23.3169006749434
-38.4183423360632,-273.042249815271,23.3797325280152
-38.4972427629172,-273.290384929125,23.442564381087
-38.5760482831737,-273.537388360311,23.5053962341588
-38.6547585212599,-273.783264424073,23.5682280872306
-38.7333731079326,-274.02801746181,23.6310599403024
-38.8118916802964,-274.271651840001,23.6938917933742
-38.8903138818177,-274.514171949151,23.756723646446
