mag,phs,freq
47.478478407656,-89.7835334525958,0.00628318530717959
26.7340610498706,-87.7149743192733,0.0691150383789754
21.317825335643,-86.0776514310914,0.131946891450771
18.2052326137964,-85.0848713410932,0.194778744522567
16.0695203342413,-84.7514057302734,0.257610597594363
14.4553721368604,-84.9693903322256,0.320442450666159
13.152788860843,-85.5936146075357,0.383274303737955
12.0516039690649,-86.4917288299529,0.446106156809751
11.0895752595209,-87.5616300122676,0.508938009881546
10.2294499908029,-88.7313660742276,0.571769862953342
9.44770268727224,-89.9529572542651,0.634601716025138
8.7286809692002,-91.1956104539817,0.697433569096934
8.06144190317445,-92.4401886276171,0.76026542216873
7.43798326353239,-93.6752064145305,0.823097275240526
6.8522204957001,-94.8940963239505,0.885929128312322
6.29937369191283,-96.0934007021792,0.948760981384117
5.77558654102883,-97.2715972825122,1.01159283445591
5.2776805069182,-98.4283445005777,1.07442468752771
4.80299033772617,-99.5640001802707,1.1372565405995
4.3492500867925,-100.679316670084,1.2000883936713
3.91451153738566,-101.775249362079,1.2629202467431
3.49708408958367,-102.852837895422,1.32575209981489
3.09548930639208,-103.913133868978,1.38858395288669
2.70842576665961,-104.957158237405,1.45141580595848
2.33474136048132,-105.985877567015,1.51424765903028
1.9734110899211,-107.000192180975,1.57707951210208
1.62351903045522,-108.000931701879,1.63991136517387
1.28424349691753,-108.988855098333,1.70274321824567
0.954844718570261,-109.964653376132,1.76557507131746
0.634654507260339,-110.928953725134,1.82840692438926
0.323067528674482,-111.882324368557,1.89123877746106
0.019533877152643,-112.825279644543,1.95407063053285
-0.276447279339572,-113.758285033779,2.01690248360465
-0.565333168266153,-114.681761965925,2.07973433667644
-0.847542142594935,-115.596092314193,2.14256618974824
-1.12345779036981,-116.501622536082,2.20539804282003
-1.39343252012553,-117.398667448724,2.26822989589183
-1.65779070111066,-118.287513645795,2.33106174896363
-1.91683142349998,-119.168422573662,2.39389360203542
-2.17083093274426,-120.041633290121,2.45672545510722
-2.42004478330193,-120.907364931618,2.51955730817901
-2.66470974975875,-121.765818915289,2.58238916125081
-2.90504552741763,-122.617180901486,2.64522101432261
-3.14125624956255,-123.461622541016,2.7080528673944
-3.37353184456159,-124.299303029574,2.7708847204662
-3.60204925261203,-125.13037048993,2.83371657353799
-3.82697351911917,-125.954963200501,2.89654842660979
-4.04845877933918,-126.773210687106,2.95938027968159
-4.26664914692439,-127.585234692924,3.02221213275338
-4.48167951732331,-128.391150040096,3.08504398582518
-4.69367629555435,-129.191065394943,3.14787583889697
-4.90275805665073,-129.985083947434,3.21070769196877
-5.10903614602832,-130.773304014378,3.27353954504056
-5.31261522613133,-131.555819574726,3.33637139811236
-5.51359377493888,-132.332720744466,3.39920325118416
-5.71206454124888,-133.104094197717,3.46203510425595
-5.90811496107902,-133.870023539919,3.52486695732775
-6.1018275390246,-134.630589638346,3.58769881039954
-6.29328019797707,-135.38587091459,3.65053066347134
-6.48254660022824,-136.135943603154,3.71336251654314
-6.66969644265274,-136.880881979841,3.77619436961493
-6.85479572837132,-137.6207585632,3.83902622268673
-7.03790701704182,-138.355644291983,3.90185807575852
-7.21908965570057,-139.085608681189,3.96468992883032
-7.39839999187898,-139.810719959043,4.02752178190211
-7.57589157054503,-140.53104518698,4.09035363497391
-7.75161531626485,-141.246650364495,4.15318548804571
-7.92561970184227,-141.957600520518,4.2160173411175
-8.097950904572,-142.663959792793,4.2788491941893
-8.268652951134,-143.36579149661,4.34168104726109
-8.43776785205941,-144.063158184053,4.40451290033289
-8.60533572661215,-144.756121694855,4.46734475340469
-8.77139491885277,-145.444743199795,4.53017660647648
-8.93598210558212,-146.129083237509,4.59300845954828
-9.09913239679962,-146.809201745467,4.65584031262007
-9.26087942925565,-147.485158085806,4.71867216569187
-9.42125545362648,-148.157011066647,4.78150401876367
-9.58029141579531,-148.824818959421,4.84433587183546
-9.73801703268163,-149.488639512723,4.90716772490726
-9.89446086302396,-150.148529963115,4.96999957797905
-10.0496503734879,-150.804547043288,5.03283143105085
-10.2036120004401,-151.456746987919,5.09566328412264
-10.3563712077022,-152.105185537558,5.15849513719444
-10.5079525405723,-152.749917940805,5.22132699026624
-10.6583796763802,-153.390998955045,5.28415884333803
-10.8076754718202,-154.028482845955,5.34699069640983
-10.9558620072875,-154.662423385979,5.40982254948162
-11.1029606284258,-155.292873851955,5.47265440255342
-11.2489919850789,-155.919887022049,5.53548625562522
-11.3939760678238,-156.543515172119,5.59831810869701
-11.5379322422487,-157.16381007166,5.66114996176881
-11.6808792811303,-157.780822979405,5.7239818148406
-11.8228353946482,-158.394604638702,5.7868136679124
-11.9638182587698,-159.00520527273,5.8496455209842
-12.1038450419254,-159.612674579642,5.91247737405599
-12.2429324300854,-160.217061727685,5.97530922712779
-12.3810966503453,-160.818415350354,6.03814108019958
-12.5183534931147,-161.416783541637,6.10097293327138
-12.654718333,-162.012213851369,6.16380478634317
-12.7902061484652,-162.604753280748,6.22663663941497
-12.9248315403484,-163.194448278032,6.28946849248677
-13.0586087493069,-163.781344734445,6.35230034555856
-13.1915516722576,-164.365487980296,6.41513219863036
-13.3236738778768,-164.946922781353,6.47796405170215
-13.4549886212173,-165.525693335459,6.54079590477395
-13.5855088574972,-166.101843269407,6.60362775784574
-13.7152472551123,-166.675415636086,6.66645961091754
-13.8442162079194,-167.246452911897,6.72929146398934
-13.9724278468343,-167.814996994434,6.79212331706113
-14.0998940507867,-168.381089200447,6.85495517013293
-14.2266264570705,-168.944770264067,6.91778702320472
-14.352636471126,-169.506080335307,6.98061887627652
-14.4779352757872,-170.065058978815,7.04345072934832
-14.6025338400267,-170.621745172905,7.10628258242011
-14.7264429272268,-171.176177308824,7.16911443549191
-14.849673103006,-171.728393190277,7.2319462885637
-14.9722347426251,-172.278430033194,7.2947781416355
-15.0941380379984,-172.826324465726,7.35760999470729
-15.2153930043326,-173.372112528475,7.42044184777909
-15.3360094864139,-173.915829674937,7.48327370085089
-15.4559971645644,-174.457510772161,7.54610555392268
-15.5753655602857,-174.997190101614,7.60893740699448
-15.6941240416078,-175.534901360238,7.67176926006627
-15.812281828159,-176.070677661696,7.73460111313807
-15.9298479959734,-176.604551537807,7.79743296620987
-16.0468314820495,-177.136554940139,7.86026481928166
-16.1632410886735,-177.666719241787,7.92309667235346
-16.2790854875216,-178.195075239291,7.98592852542525
-16.3943732235507,-178.721653154718,8.04876037849705
-16.5091127186917,-179.246482637884,8.11159223156885
-16.6233122753534,-179.769592768712,8.17442408464064
-16.7369800797489,-180.291012059726,8.23725593771244
-16.8501242050529,-180.810768458666,8.30008779078423
-16.9627526143991,-181.328889351221,8.36291964385603
-17.0748731637257,-181.845401563879,8.42575149692783
-17.1864936044771,-182.360331366886,8.48858334999962
-17.2976215861696,-182.873704477298,8.55141520307142
-17.408264658827,-183.385546062143,8.61424705614321
-17.5184302752934,-183.895880741666,8.67707890921501
-17.6281257934294,-184.40473259267,8.7399107622868
-17.7373584781975,-184.912125151934,8.8027426153586
-17.8461355036416,-185.418081419717,8.8655744684304
-17.9544639547672,-185.922623863333,8.92840632150219
-18.0623508293251,-186.425774420808,8.99123817457399
-18.1698030395061,-186.927554504596,9.05407002764578
-18.2768274135477,-187.427985005367,9.11690188071758
-18.3834306972608,-187.927086295861,9.17973373378937
-18.4896195554764,-188.424878234801,9.24256558686117
-18.5954005734196,-188.921380170863,9.30539743993297
-18.7007802580118,-189.416610946704,9.36822929300476
-18.8057650391061,-189.910588903049,9.43106114607656
-18.9103612706585,-190.403331882822,9.49389299914835
-19.0145752318376,-190.894857235336,9.55672485222015
-19.1184131280765,-191.38518182053,9.61955670529195
-19.2218810920693,-191.87432201325,9.68238855836374
-19.3249851847142,-192.362293707586,9.74522041143554
-19.4277313960073,-192.84911232124,9.80805226450733
-19.5301256458873,-193.334792799958,9.87088411757913
-19.6321737850355,-193.819349621987,9.93371597065093
-19.7338815956317,-194.302796802587,9.99654782372272
-19.8352547920695,-194.78514789858,10.0593796767945
-19.9362990216314,-195.266416012939,10.1222115298663
-20.0370198651267,-195.746613799428,10.1850433829381
-20.1374228374942,-196.225753467265,10.2478752360099
-20.2375133883707,-196.703846785843,10.3107070890817
-20.337296902627,-197.180905089477,10.3735389421535
-20.4367787008743,-197.656939282198,10.4363707952253
-20.5359640399406,-198.131959842582,10.4992026482971
-20.6348581133203,-198.605976828622,10.5620345013689
-20.7334660515975,-199.078999882632,10.6248663544407
-20.8317929228449,-199.551038236194,10.6876982075125
-20.9298437329992,-200.022100715142,10.7505300605843
-21.0276234262147,-200.492195744584,10.8133619136561
-21.1251368851963,-200.961331353957,10.8761937667279
-21.2223889315126,-201.429515182127,10.9390256197997
-21.3193843258915,-201.896754482522,11.0018574728715
-21.4161277684978,-202.363056128298,11.0646893259433
-21.5126238991955,-202.828426617551,11.127521179015
-21.6088772977944,-203.292872078554,11.1903530320868
-21.7048924842839,-203.756398275041,11.2531848851586
-21.8006739190524,-204.219010611516,11.3160167382304
-21.8962260030965,-204.680714138609,11.3788485913022
-21.9915530782178,-205.141513558452,11.441680444374
-22.0866594272105,-205.601413230106,11.5045122974458
-22.1815492740396,-206.060417175005,11.5673441505176
-22.2762267840112,-206.518529082448,11.6301760035894
-22.3706960639346,-206.975752315113,11.6930078566612
-22.4649611622791,-207.432089914611,11.755839709733
-22.5590260693237,-207.88754460706,11.8186715628048
-22.6528947173031,-208.342118808704,11.8815034158766
-22.7465709805483,-208.795814631548,11.9443352689484
-22.840058675625,-209.248633889032,12.0071671220202
-22.933361561468,-209.700578101724,12.069998975092
-23.0264833395146,-210.151648503044,12.1328308281638
-23.119427653836,-210.601846045017,12.1956626812356
-23.2121980912684,-211.05117140404,12.2584945343074
-23.3047981815435,-211.499624986682,12.3213263873792
-23.3972313974202,-211.9472069355,12.384158240451
-23.489501154817,-212.39391713488,12.4469900935228
-23.5816108129465,-212.839755216888,12.5098219465946
-23.6735636744514,-213.28472056715,12.5726537996664
-23.7653629855445,-213.728812330738,12.6354856527381
-23.857011936151,-214.172029418078,12.6983175058099
-23.9485136600554,-214.614370510861,12.7611493588817
-24.039871235052,-215.055834067977,12.8239812119535
-24.1310876831008,-215.496418331445,12.8868130650253
-24.2221659704885,-215.93612133236,12.9496449180971
-24.3131090079946,-216.374940896839,13.0124767711689
-24.4039196510647,-216.812874651975,13.0753086242407
-24.4946006999889,-217.249920031786,13.1381404773125
-24.5851549000879,-217.686074283171,13.2009723303843
-24.6755849419059,-218.121334471852,13.2638041834561
-24.7658934614115,-218.555697488326,13.3266360365279
-24.856083040205,-218.989160053793,13.3894678895997
-24.9461562057358,-219.421718726085,13.4522997426715
-25.036115431526,-219.853369905582,13.5151315957433
-25.1259631374045,-220.28410984111,13.5779634488151
-25.2157016897484,-220.713934635826,13.6407953018869
-25.3053334017344,-221.142840253079,13.7036271549587
-25.394860533599,-221.570822522258,13.7664590080305
-25.4842852929079,-221.997877144613,13.8292908611023
-25.5736098348355,-222.42399969904,13.8921227141741
-25.6628362624535,-222.849185647858,13.9549545672459
-25.75196662703,-223.273430342535,14.0177864203177
-25.8410029283372,-223.696729029393,14.0806182733895
-25.9299471149708,-224.119076855275,14.1434501264612
-26.0188010846777,-224.54046887317,14.206281979533
-26.1075666846953,-224.960900047803,14.2691138326048
-26.1962457120995,-225.380365261177,14.3319456856766
-26.2848399141641,-225.798859318077,14.3947775387484
-26.373350988729,-226.216376951516,14.4576093918202
-26.4617805845798,-226.632912828143,14.520441244892
-26.550130301836,-227.04846155359,14.5832730979638
-26.6384016923505,-227.46301767777,14.6461049510356
-26.7265962601183,-227.876575700113,14.7089368041074
-26.8147154616945,-228.289130074751,14.7717686571792
-26.9027607066233,-228.700675215634,14.834600510251
-26.9907333578755,-229.11120550159,14.8974323633228
-27.0786347322955,-229.520715281313,14.9602642163946
-27.1664661010585,-229.929198878292,15.0230960694664
-27.2542286901355,-230.336650595662,15.0859279225382
-27.3419236807681,-230.743064720992,15.14875977561
-27.4295522099521,-231.148435530995,15.2115916286818
-27.5171153709293,-231.552757296167,15.2744234817536
-27.6046142136874,-231.956024285347,15.3372553348254
-27.692049745469,-232.358230770201,15.4000871878972
-27.7794229312872,-232.759371029624,15.462919040969
-27.8667346944501,-233.159439354065,15.5257508940408
-27.9539859170917,-233.558430049765,15.5885827471126
-28.0411774407105,-233.956337442917,15.6514146001843
-28.1283100667146,-234.353155883732,15.7142464532561
-28.2153845569737,-234.748879750428,15.7770783063279
-28.3024016343773,-235.143503453127,15.8399101593997
-28.3893619833987,-235.537021437661,15.9027420124715
-28.4762662506647,-235.929428189293,15.9655738655433
-28.563115045531,-236.320718236348,16.0284057186151
-28.6499089406626,-236.710886153747,16.0912375716869
-28.7366484726187,-237.099926566452,16.1540694247587
-28.8233341424422,-237.487834152821,16.2169012778305
-28.9099664162534,-237.874603647868,16.2797331309023
-28.9965457258473,-238.260229846423,16.3425649839741
-29.0830724692949,-238.644707606209,16.4053968370459
-29.1695470115467,-239.028031850816,16.4682286901177
-29.25596968504,-239.410197572581,16.5310605431895
-29.3423407903078,-239.791199835378,16.5938923962613
-29.4286605965907,-240.171033777305,16.6567242493331
-29.5149293424501,-240.549694613284,16.7195561024049
-29.6011472363826,-240.927177637558,16.7823879554767
-29.6873144574363,-241.303478226101,16.8452198085485
-29.7734311558274,-241.678591838926,16.9080516616203
-29.8594974535573,-242.052514022299,16.9708835146921
-29.9455134450302,-242.425240410869,17.0337153677639
-30.0314791976702,-242.796766729687,17.0965472208357
-30.1173947525379,-243.167088796147,17.1593790739074
-30.2032601249467,-243.536202521825,17.2222109269792
-30.2890753050772,-243.90410391423,17.285042780051
-30.3748402585913,-244.270789078465,17.3478746331228
-30.4605549272431,-244.636254218788,17.4107064861946
-30.5462192294893,-245.000495640097,17.4735383392664
-30.6318330610963,-245.363509749314,17.5363701923382
-30.7173962957449,-245.725293056688,17.59920204541
-30.8029087856328,-246.085842177007,17.6620338984818
-30.8883703620726,-246.445153830726,17.7248657515536
-30.9737808360879,-246.80322484501,17.7876976046254
-31.0591399990048,-247.160052154691,17.8505294576972
-31.1444476230394,-247.515632803145,17.913361310769
-31.2297034618818,-247.869963943084,17.9761931638408
-31.3149072512753,-248.223042837275,18.0390250169126
-31.4000587095906,-248.574866859168,18.1018568699844
-31.4851575383958,-248.925433493461,18.1646887230562
-31.570203423021,-249.274740336574,18.227520576128
-31.6551960331172,-249.622785097061,18.2903524291998
-31.7401350232106,-249.969565595943,18.3531842822716
-31.8250200332503,-250.315079766966,18.4160161353434
-31.9098506891508,-250.659325656793,18.4788479884152
-31.9946266033278,-251.002301425129,18.541679841487
-32.0793473752283,-251.344005344772,18.6045116945588
-32.1640125918543,-251.684435801605,18.6673435476306
-32.2486218282793,-252.02359129452,18.7301754007023
-32.333174648159,-252.361470435278,18.7930072537741
-32.4176706042347,-252.698071948315,18.8558391068459
-32.5021092388294,-253.03339467048,18.9186709599177
-32.5864900843377,-253.36743755072,18.9815028129895
-32.6708126637078,-253.70019964971,19.0443346660613
-32.7550764909163,-254.031680139423,19.1071665191331
-32.8392810714361,-254.361878302657,19.1699983722049
-32.9234259026958,-254.690793532496,19.2328302252767
-33.0075104745331,-255.018425331739,19.2956620783485
-33.0915342696386,-255.344773312265,19.3584939314203
-33.1754967639938,-255.669837194363,19.4213257844921
-33.2593974273,-255.993616806012,19.4841576375639
-33.3432357234,-256.316112082119,19.5469894906357
-33.4270111106916,-256.637323063714,19.6098213437075
-33.5107230425336,-256.957249897112,19.6726531967793
-33.5943709676438,-257.275892833027,19.7354850498511
-33.6779543304885,-257.593252225654,19.7983169029229
-33.7614725716645,-257.909328531719,19.8611487559947
-33.8449251282733,-258.224122309489,19.9239806090665
-33.9283114342871,-258.537634217757,19.9868124621383
-34.0116309209062,-258.84986501479,20.0496443152101
-34.0948830169098,-259.160815557251,20.1124761682819
-34.1780671489971,-259.470486799093,20.1753080213537
-34.2611827421223,-259.77887979043,20.2381398744254
-34.34422921982,-260.085995676377,20.3009717274972
-34.4272060045238,-260.391835695873,20.363803580569
-34.5101125178767,-260.696401180477,20.4266354336408
-34.5929481810334,-260.999693553147,20.4894672867126
-34.6757124149553,-261.301714326999,20.5522991397844
-34.7584046406973,-261.602465104049,20.6151309928562
-34.8410242796875,-261.901947573933,20.677962845928
-34.9235707539984,-262.200163512623,20.7407946989998
-35.0060434866117,-262.497114781113,20.8036265520716
-35.0884419016743,-262.792803324111,20.8664584051434
-35.1707654247478,-263.087231168702,20.9292902582152
-35.2530134830503,-263.380400423011,20.992122111287
-35.3351855056912,-263.672313274853,21.0549539643588
-35.4172809238979,-263.962971990376,21.1177858174306
-35.4992991712367,-264.252378912694,21.1806176705024
-35.5812396838253,-264.540536460518,21.2434495235742
-35.6631019005397,-264.827447126781,21.306281376646
-35.7448852632125,-265.113113477252,21.3691132297178
-35.8265892168264,-265.397538149159,21.4319450827896
-35.9082132096992,-265.680723849799,21.4947769358614
-35.9897566936635,-265.96267335515,21.5576087889332
-36.0712191242392,-266.243389508489,21.620440642005
-36.1525999607996,-266.522875218996,21.6832724950768
-36.2338986667315,-266.801133460376,21.7461043481485
-36.3151147095889,-267.078167269469,21.8089362012203
-36.3962475612406,-267.353979744869,21.8717680542921
-36.4772966980116,-267.628574045551,21.9345999073639
-36.5582616008194,-267.90195338949,21.9974317604357
-36.6391417553028,-268.174121052295,22.0602636135075
-36.7199366519472,-268.445080365849,22.1230954665793
-36.8006457862024,-268.714834716944,22.1859273196511
-36.8812686585958,-268.983387545938,22.2487591727229
-36.9618047748406,-269.250742345405,22.3115910257947
-37.0422536459372,-269.516902658805,22.3744228788665
-37.1226147882717,-269.781872079153,22.4372547319383
-37.2028877237068,-270.045654247705,22.5000865850101
-37.28307197967,-270.308252852645,22.5629184380819
-37.3631670892353,-270.569671627788,22.6257502911537
-37.4431725912009,-270.829914351294,22.6885821442255
-37.5230880301625,-271.088984844387,22.7514139972973
-37.6029129565813,-271.34688697009,22.8142458503691
-37.682646926848,-271.603624631968,22.8770777034409
-37.7622895033426,-271.859201772891,22.9399095565127
-37.8418402544898,-272.113622373793,23.0027414095845
-37.9212987548099,-272.366890452464,23.0655732626563
-38.0006645849667,-272.619010062338,23.1284051157281
-38.0799373318101,-272.869985291302,23.1912369687999
-38.1591165884162,-273.119820260517,23.2540688218716
-38.2382019541225,-273.368519123253,23.3169006749434
-38.3171930345608,-273.616086063736,23.3797325280152
-38.3960894416849,-273.862525296013,23.442564381087
-38.4748907937965,-274.107841062823,23.5053962341588
-38.5535967155669,-274.352037634495,23.5682280872306
-38.6322068380552,-274.595119307847,23.6310599403024
-38.7107207987244,-274.837090405109,23.6938917933742
-38.7891382414531,-275.077955272859,23.756723646446
